atten_LIV_lambda_1,atten_LIV_lambda_2,atten_LIV_lambda_3,atten_LIV_lambda_4,atten_LIV_lambda_5,atten_LIV_lambda_6,atten_LIV_lambda_7,energy
0.9550399558798109,0.9550399558598927,0.9550399558542507,0.9550399558495286,0.9550399558481182,0.9550399558466267,0.9550399558462446,100000000000.0
0.953909493586974,0.9539094935659643,0.9539094935600133,0.9539094935550325,0.9539094935535448,0.9539094935519716,0.9539094935515686,100804658307.51747
0.9527580958495614,0.9527580958274341,0.9527580958211664,0.9527580958159207,0.9527580958143539,0.952758095812697,0.9527580958122724,101615791364.9531
0.9515807876593886,0.9515807876360836,0.9515807876294823,0.9515807876239574,0.951580787622307,0.9515807876205621,0.9515807876201149,102433451271.92082
0.9503808205937998,0.9503808205692249,0.9503808205622639,0.9503808205564379,0.9503808205546976,0.9503808205528576,0.950380820552386,103257690547.25719
0.949157080912085,0.9491570808862085,0.949157080878879,0.9491570808727445,0.9491570808709121,0.9491570808689745,0.949157080868478,104088562132.39638
0.9479112290034784,0.9479112289762022,0.947911228968476,0.9479112289620096,0.9479112289600781,0.9479112289580357,0.9479112289575123,104926119394.76976
0.9466388924802848,0.946638892451571,0.9466388924434377,0.9466388924366305,0.9466388924345971,0.946638892432447,0.9466388924318961,105770416131.23549
0.945346201656833,0.9453462016265848,0.9453462016180169,0.9453462016108459,0.945346201608704,0.945346201606439,0.9453462016058587,106621506571.53127
0.9440281319630949,0.9440281319312473,0.9440281319222263,0.9440281319146763,0.9440281319124211,0.9440281319100363,0.9440281319094254,107479445381.75938
0.9426850320581872,0.942685032024659,0.942685032015162,0.9426850320072134,0.9426850320048392,0.9426850320023287,0.9426850320016854,108344287667.89697
0.9413171915454718,0.9413171915101556,0.9413171915001521,0.9413171914917796,0.9413171914892788,0.9413171914866344,0.9413171914859568,109216088979.33734
0.9399247048866003,0.9399247048494694,0.939924704838952,0.9399247048301493,0.93992470482752,0.9399247048247397,0.9399247048240273,110094905312.45525
0.9385069992515794,0.9385069992125026,0.9385069992014339,0.93850699919217,0.9385069991894027,0.9385069991864767,0.938506999185727,110980793114.20496
0.9370657482284434,0.9370657481873231,0.9370657481756757,0.9370657481659271,0.9370657481630154,0.9370657481599364,0.9370657481591474,111873809285.7472
0.9355994011532841,0.9355994011099918,0.9355994010977291,0.9355994010874658,0.9355994010844001,0.9355994010811585,0.9355994010803279,112774011186.10121
0.934108575527899,0.9341085754824242,0.9341085754695433,0.9341085754587625,0.9341085754555423,0.9341085754521372,0.9341085754512648,113681456635.83086
0.9325903404777275,0.9325903404299023,0.9325903404163556,0.9325903404050175,0.9325903404016309,0.9325903403980499,0.9325903403971323,114596203920.75748
0.931045136149411,0.9310451360991813,0.9310451360849535,0.9310451360730455,0.9310451360694886,0.9310451360657275,0.9310451360647638,115518311795.70552
0.9294745496039845,0.9294745495511212,0.9294745495361475,0.9294745495236151,0.9294745495198716,0.9294745495159134,0.9294745495148992,116447839488.27359
0.9278769453720618,0.9278769453164408,0.927876945300686,0.9278769452874999,0.9278769452835611,0.9278769452793965,0.9278769452783293,117384846702.64061
0.9262537354349435,0.9262537353765681,0.9262537353600331,0.9262537353461939,0.9262537353420602,0.9262537353376892,0.9262537353365692,118329393623.39957
0.9246031310180145,0.9246031309567043,0.9246031309393381,0.9246031309248032,0.9246031309204616,0.9246031309158709,0.9246031309146946,119281540919.42531
0.9229278844174242,0.9229278843529796,0.9229278843347254,0.9229278843194474,0.9229278843148838,0.9229278843100583,0.9229278843088219,120241349747.76831
0.9212246887680294,0.921224688700351,0.9212246886811808,0.9212246886651362,0.9212246886603436,0.9212246886552761,0.9212246886539776,121208881757.58438
0.9194930568274753,0.9194930567563363,0.919493056736186,0.9194930567193209,0.9194930567142834,0.9194930567089566,0.9194930567075917,122184199094.09581
0.9177321095501961,0.9177321094754955,0.9177321094543363,0.9177321094366269,0.9177321094313371,0.9177321094257437,0.9177321094243105,123167364402.58014
0.9159447545085001,0.9159447544301328,0.9159447544079349,0.9159447543893562,0.9159447543838068,0.9159447543779389,0.9159447543764353,124158440832.39581
0.9141287311227002,0.9141287310403925,0.9141287310170785,0.9141287309975656,0.9141287309917372,0.9141287309855742,0.914128730983995,125157492041.03735
0.9122850106912043,0.91228501060482,0.9122850105803513,0.9122850105598721,0.9122850105537549,0.9122850105472866,0.9122850105456293,126164582198.22607
0.9104149571238409,0.910414957033124,0.9104149570074281,0.9104149569859218,0.9104149569794978,0.9104149569727051,0.9104149569709646,127179775990.02881
0.9085153115474821,0.9085153114523442,0.9085153114253961,0.9085153114028416,0.9085153113961045,0.9085153113889809,0.9085153113871556,128203138623.0147
0.9065863432308097,0.9065863431311503,0.9065863431029213,0.906586343079295,0.9065863430722377,0.9065863430647755,0.9065863430628635,129234735828.4424
0.9046287571002389,0.9046287569956646,0.9046287569660435,0.9046287569412519,0.9046287569338466,0.9046287569260163,0.90462875692401,130274633866.4842
0.9026453140077598,0.9026453138979873,0.9026453138668938,0.9026453138408699,0.9026453138330965,0.902645313824877,0.902645313822771,131322899530.47885
0.9006339172003707,0.9006339170852207,0.900633917052604,0.9006339170253053,0.9006339170171511,0.9006339170085289,0.9006339170063197,132379600151.22313
0.8985914565380825,0.898591456417423,0.8985914563832458,0.8985914563546409,0.8985914563460966,0.898591456337062,0.898591456334747,133444803601.29836
0.89652146856795,0.8965214684416368,0.8965214684058581,0.8965214683759128,0.8965214683669681,0.8965214683575101,0.8965214683550867,134518578299.42659
0.8944266845533191,0.894426684420814,0.8944266843832814,0.8944266843518682,0.8944266843424851,0.8944266843325634,0.8944266843300211,135600993214.86731
0.8923004220290858,0.8923004218901336,0.8923004218507748,0.8923004218178332,0.8923004218079935,0.8923004217975892,0.8923004217949233,136692117871.84639
0.8901446562563989,0.8901446561108627,0.8901446560696389,0.8901446560351365,0.8901446560248305,0.8901446560139331,0.8901446560111409,137792022354.02377
0.8879596658176793,0.8879596656652604,0.8879596656220872,0.8879596655859531,0.8879596655751598,0.8879596655637471,0.8879596655608227,138900777308.99176
0.8857454956782426,0.8857454955186285,0.8857454954734171,0.8857454954355771,0.8857454954242744,0.8857454954123228,0.8857454954092605,140018453952.81433
0.883505105868527,0.8835051057014229,0.88350510565409,0.8835051056144744,0.8835051056026412,0.8835051055901288,0.8835051055869229,141145124074.60318
0.8812391113473808,0.8812391111724998,0.881239111122964,0.8812391110815048,0.8812391110691209,0.8812391110560263,0.881239111052671,142280860041.12534
0.878943095561149,0.8789430953778576,0.8789430953259397,0.8789430952824866,0.8789430952695071,0.8789430952557826,0.8789430952522661,143425734801.45355
0.8766181553310308,0.8766181551392129,0.8766181550848797,0.8766181550394053,0.876618155025822,0.8766181550114591,0.876618155007779,144579821891.65085
0.8742644993666273,0.8742644991659135,0.8742644991090606,0.8742644990614772,0.8742644990472639,0.8742644990322349,0.8742644990283841,145743195439.49597
0.8718854769298569,0.8718854767198708,0.8718854766603914,0.8718854766106097,0.8718854765957399,0.8718854765800167,0.8718854765759879,146915930169.2413
0.8694758124852732,0.8694758122656232,0.8694758122034065,0.8694758121513338,0.8694758121357797,0.8694758121193329,0.8694758121151187,148098101406.41467
0.8670380585840073,0.8670380583542944,0.8670380582892273,0.867038058234769,0.8670380582185022,0.8670380582013019,0.8670380581968947,149289785082.65643
0.8645729374541455,0.8645729372137965,0.8645729371457166,0.8645729370887367,0.8645729370717168,0.8645729370537201,0.8645729370491088,150491057740.599
0.8620797879732619,0.8620797877220179,0.8620797876508519,0.8620797875912892,0.8620797875734978,0.8620797875546852,0.8620797875498649,151701996538.77966
0.8595604409852904,0.859560440722639,0.8595604406482419,0.8595604405859748,0.8595604405673756,0.8595604405477089,0.8595604405426698,152922679256.59818
0.857010011844432,0.8570100115696325,0.8570100114917945,0.8570100114266475,0.8570100114071879,0.8570100113866116,0.8570100113813394,154153184299.3147
0.8544308918466562,0.8544308915595347,0.8544308914782064,0.8544308914101381,0.854430891389806,0.8544308913683071,0.8544308913627984,155393590703.08185
0.8518250781561097,0.8518250778562427,0.8518250777713042,0.8518250777002144,0.8518250776789797,0.8518250776565265,0.8518250776507733,156643978140.0239
0.8491932005807468,0.8491932002672743,0.8491932001784819,0.8491932001041665,0.8491932000819685,0.8491932000584964,0.8491932000524822,157904426923.3528
0.8465335007333135,0.8465335004058617,0.8465335003131097,0.8465335002354804,0.8465335002122923,0.8465335001877735,0.8465335001814911,159175018012.52942
0.8438470441422452,0.8438470438000435,0.8438470437031135,0.8438470436219873,0.8438470435977549,0.8438470435721316,0.8438470435655662,160455833018.4597
0.8411334734253368,0.8411334730680985,0.8411334729669093,0.8411334728822184,0.8411334728569211,0.8411334728301719,0.8411334728233181,161746954208.73907
0.8383932396775877,0.8383932393046192,0.8383932391989745,0.8383932391105543,0.8383932390841431,0.8383932390562162,0.8383932390490605,163048464512.93552
0.8356281366422433,0.8356281362528127,0.8356281361425049,0.835628136050182,0.8356281360226051,0.8356281359934454,0.835628135985974,164360447527.91855
0.8328369394005939,0.8328369389941613,0.8328369388790376,0.8328369387826842,0.8328369387539032,0.8328369387234705,0.8328369387156729,165682987523.22482
0.8300194946367127,0.8300194942123164,0.8300194940921044,0.8300194939914922,0.8300194939614393,0.8300194939296615,0.8300194939215192,167016169446.4729
0.8271742595340257,0.8271742590915171,0.8271742589661747,0.8271742588612687,0.8271742588299331,0.8271742587967992,0.8271742587883093,168360078928.8214
0.8243039666368162,0.8243039661751208,0.8243039660443437,0.8243039659348892,0.8243039659021949,0.8243039658676243,0.8243039658587663,169714802290.46515
0.821409698564357,0.821409698082618,0.8214096979461635,0.8214096978319569,0.8214096977978433,0.8214096977617719,0.8214096977525295,171080426546.18225
0.8184904376776997,0.8184904371752068,0.8184904370328737,0.818490436913747,0.8184904368781638,0.8184904368405383,0.8184904368308976,172457039410.92172
0.8155458408846727,0.8155458403604056,0.8155458402119048,0.8155458400876162,0.815545840050491,0.8155458400112351,0.8155458400011767,173844729305.44037
0.812576595366231,0.812576594819691,0.8125765946648814,0.8125765945353125,0.8125765944966101,0.8125765944556865,0.8125765944452008,175243585361.97787
0.8095844539722433,0.8095844534028821,0.8095844532416083,0.8095844531066291,0.8095844530663107,0.8095844530236783,0.8095844530127547,176653697429.9845
0.806570463636335,0.8065704630425662,0.8065704628743787,0.8065704627336133,0.8065704626915664,0.8065704626471065,0.8065704626357146,178075156081.89093
0.8035318090141712,0.8035318083952495,0.8035318082199374,0.8035318080732089,0.8035318080293808,0.8035318079830375,0.8035318079711631,179508052618.92856
0.8004685637162077,0.8004685630708954,0.8004685628881082,0.8004685627351232,0.8004685626894263,0.8004685626411069,0.8004685626287262,180952479076.9896
0.7973826320244706,0.7973826313522424,0.7973826311618311,0.7973826310024651,0.7973826309548623,0.7973826309045274,0.7973826308916303,182408528232.54068
0.7942761040543272,0.7942761033544885,0.7942761031562565,0.7942761029903449,0.7942761029407869,0.7942761028883847,0.7942761028749578,183876293608.58417
0.7911477026228361,0.7911477018941616,0.7911477016877617,0.7911477015150139,0.791147701463414,0.7911477014088525,0.7911477013948724,185355869480.66086
0.7879979714917419,0.7879979707328029,0.7879979705178304,0.7879979703379076,0.7879979702841646,0.7879979702273371,0.7879979702127763,186847350882.90823
0.7848284838495128,0.7848284830594293,0.784828482835635,0.7848284826483289,0.7848284825923804,0.7848284825332207,0.7848284825180625,188350833614.16312
0.7816368200012478,0.7816368191783521,0.7816368189452637,0.7816368187501789,0.7816368186919067,0.7816368186302903,0.7816368186145025,189866414244.1179
0.7784253247901535,0.7784253239338518,0.7784253236913009,0.7784253234882964,0.7784253234276587,0.7784253233635409,0.7784253233471121,191394190119.51874
0.7751953500939542,0.7751953492027338,0.7751953489502921,0.7751953487390094,0.775195348675899,0.7751953486091666,0.7751953485920678,192934259370.42123
0.7719463671026349,0.7719463661749869,0.7719463659122271,0.7719463656923083,0.7719463656266183,0.7719463655571583,0.7719463655393608,194486720916.49182
0.7686757010273838,0.76867570006228,0.7686756997889107,0.7686756995601123,0.7686756994917698,0.7686756994195053,0.7686756994009892,196051674473.36472
0.7653863641998145,0.7653863631957357,0.7653863629113264,0.7653863626732882,0.765386362602186,0.7653863625270029,0.7653863625077391,197629220559.04175
0.762080244805305,0.762080243761524,0.762080243465869,0.7620802432184185,0.7620802431445047,0.7620802430663489,0.7620802430463234,199219460500.3513
0.7587614246586337,0.7587614235729346,0.7587614232654062,0.7587614230080182,0.758761422931136,0.7587614228498415,0.7587614228290116,200822496439.45886
0.7554224431588261,0.7554224420288944,0.7554224417088369,0.7554224414409626,0.7554224413609482,0.7554224412763417,0.7554224412546632,202438431340.42294
0.7520650407392185,0.7520650395642976,0.7520650392314966,0.7520650389529566,0.7520650388697564,0.7520650387817811,0.7520650387592396,204067368995.8117
0.748692069346642,0.7486920681257695,0.7486920677799526,0.7486920674905189,0.7486920674040646,0.7486920673126486,0.7486920672892253,205709414033.368
0.7453060747046338,0.7453060734356536,0.7453060730762099,0.7453060727753711,0.7453060726855102,0.745306072590492,0.7453060725661458,207364671922.733
0.741905336955458,0.7419053356371411,0.7419053352637226,0.7419053349511876,0.7419053348578329,0.7419053347591207,0.7419053347338278,209033248982.21564
0.7384904618135987,0.7384904604439426,0.7384904600559821,0.738490459731276,0.738490459634286,0.7384904595317294,0.7384904595054517,210715252385.62387
0.7350607411894473,0.7350607397656715,0.7350607393623814,0.735060739024845,0.7350607389240225,0.7350607388174136,0.7350607387900975,212410790169.15118
0.731618828996124,0.7316188275180107,0.7316188270993291,0.731618826748911,0.7316188266442406,0.731618826533563,0.7316188265052045,214119971238.31076
0.7281622796349566,0.7281622780997082,0.7281622776648431,0.7281622773008799,0.7281622771921634,0.7281622770772079,0.7281622770477532,215842905374.93387
0.7246927865487923,0.7246927849543012,0.7246927845026552,0.7246927841246472,0.7246927840117359,0.7246927838923442,0.7246927838617528,217579703244.21945
0.7212117161741508,0.7212117145180046,0.7212117140488945,0.7212117136562699,0.7212117135389924,0.7212117134149842,0.7212117133832099,219330476401.84595
0.7177185494973269,0.7177185477777158,0.7177185472906292,0.7177185468829588,0.7177185467611872,0.7177185466324268,0.717718546599435,221095337301.13104
0.7142156642457632,0.7142156624628527,0.7142156619578363,0.7142156615351595,0.7142156614089052,0.7142156612754053,0.714215661241199,222874399300.25836
0.7107021444209141,0.7107021425700814,0.7107021420458257,0.7107021416070465,0.7107021414759825,0.7107021413373966,0.7107021413018872,224667776669.55664
0.7071811338953885,0.70718113197468,0.7071811314306318,0.7071811309752871,0.7071811308392751,0.7071811306954572,0.7071811306586071,226475584598.84305
0.7036492020773822,0.703649200082713,0.7036491995177151,0.7036491990448364,0.703649198903587,0.7036491987542309,0.703649198715962,228297939204.81638
0.7001043822500718,0.7001043801804211,0.7001043795941845,0.7001043791035297,0.7001043789569706,0.7001043788020002,0.7001043787622925,230134957538.51913
0.6965509042244548,0.696550902078629,0.6965509014708153,0.6965509009621018,0.6965509008101484,0.6965509006494742,0.696550900608305,231986757592.8537
0.6929926823635701,0.6929926801382496,0.6929926795079188,0.6929926789803592,0.6929926788227766,0.69299267865615,0.6929926786134557,233853458310.165
0.6894293439390566,0.6894293416315753,0.6894293409779721,0.6894293404309346,0.6894293402675338,0.6894293400947552,0.6894293400504846,235735179589.87466
0.6858596825894907,0.685859680197174,0.6858596795195409,0.6858596789523913,0.685859678782983,0.6858596786038522,0.685859678557954,237632042296.18484
0.6822810546273527,0.6822810521466665,0.6822810514440023,0.6822810508559028,0.6822810506802368,0.6822810504944891,0.6822810504468955,239544168265.84454
0.6786949875337684,0.6786949849627425,0.6786949842344894,0.678694983624973,0.6786949834429097,0.6786949832503975,0.6786949832010706,241471680315.9693
0.6751061532388526,0.6751061505740843,0.6751061498192783,0.6751061491875382,0.6751061489988367,0.6751061487993054,0.67510614874818,243414702251.93378
0.6715142252322551,0.6715142224705452,0.6715142216882798,0.6715142210335578,0.6715142208379916,0.6715142206312014,0.6715142205782162,245373358875.32187
0.6679180175321059,0.667918014671699,0.6679180138614774,0.6679180131833572,0.6679180129808018,0.6679180127666215,0.6679180127117428,247347775991.9468
0.6643165161206195,0.6643165131568709,0.6643165123173774,0.6643165116147578,0.6643165114048845,0.6643165111829662,0.6643165111261048,249338080419.92572
0.6607127214772487,0.6607127184070909,0.6607127175374566,0.6607127168096104,0.6607127165922018,0.6607127163623159,0.6607127163034129,251344399997.82822
0.6571072697690087,0.6571072665874437,0.6571072656862529,0.6571072649319952,0.6571072647066976,0.6571072644684697,0.6571072644074293,253366863592.8907
0.653500281896601,0.6535002786021523,0.6535002776689867,0.6535002768879675,0.6535002766546761,0.6535002764079959,0.6535002763447897,255405601109.28735
0.6498907188408327,0.6498907154287237,0.6498907144622303,0.6498907136533173,0.649890713411694,0.6498907131562035,0.64989071309074,257460743496.47818
0.6462810515420628,0.6462810480096812,0.6462810470091201,0.646281046171694,0.6462810459215538,0.6462810456570577,0.6462810455892867,259532422757.61777
0.6426724187559653,0.6426724151000998,0.6426724140645614,0.6426724131978608,0.6426724129389763,0.6426724126652339,0.6426724125950937,261620771958.03833
0.6390668291409697,0.6390668253590753,0.639066824287839,0.6390668233912605,0.6390668231234514,0.6390668228402724,0.6390668227677143,263725925233.79
0.6354620559169909,0.6354620520014405,0.6354620508923453,0.6354620499640808,0.6354620496868071,0.6354620493936203,0.6354620493184978,265848017800.26102
0.6318571806381519,0.6318571765847237,0.6318571754365743,0.6318571744756231,0.6318571741885857,0.6318571738850748,0.6318571738073071,267987185960.86026
0.6282537458357235,0.6282537416403096,0.628253740451942,0.6282537394573301,0.6282537391602382,0.6282537388460957,0.628253738765604,270143567115.7766
0.6246527504455359,0.6246527461056743,0.6246527448763914,0.624652743847535,0.6246527435402143,0.624652743215256,0.6246527431319929,272317299770.79776
0.6210546234085803,0.621054618919619,0.621054617648103,0.6210546165838993,0.6210546162660202,0.6210546159298977,0.6210546158437741,274508523546.20963
0.6174606947400864,0.6174606900961344,0.6174606887807166,0.6174606876797691,0.6174606873509147,0.6174606870031869,0.6174606869140896,276717379185.76776
0.6138717946027218,0.6138717898000106,0.6138717884396236,0.6138717873010389,0.613871786960942,0.6138717866013268,0.6138717865091836,278944008565.73065
0.6102867772814802,0.6102867723173067,0.6102867709111849,0.6102867697343219,0.6102867693827916,0.6102867690110862,0.6102867689158454,281188554703.97705
0.6067067081839529,0.606706703050091,0.6067067015959043,0.6067067003788132,0.6067067000152666,0.6067066996308556,0.6067066995323589,283451161769.18976
