atten_sr,energy
0.9655104533754074,100000000000.0
0.9648894345149541,100572582218.01648
0.9642602160408666,101148442939.99643
0.9636229628612604,101727600938.0714
0.9629744645727231,102310075091.85715
0.9623166033987918,102895884389.07243
0.9616523487488975,103485047926.15463
0.960974548430694,104077584908.88562
0.9602871232019017,104673514653.01448
0.9595895543309538,105272856584.89052
0.9588874351266615,105875630242.09315
0.9581729904832509,106481855274.07227
0.9574489200854804,107091551442.78522
0.9567172497663727,107704738623.34457
0.9559741716946587,108321436804.66254
0.9552202310204885,108941666090.10599
0.9544559476284294,109565446698.14838
0.9536831020483924,110192798963.0323
0.9529001288516562,110823743335.42882
0.9521060849496668,111458300383.10771
0.9513035945159795,112096490791.60478
0.9504907001999603,112738335364.89754
0.9496677734882395,113383855026.08472
0.948833927648479,114033070818.0652
0.9479901597939561,114686003904.22758
0.9471351704239949,115342675569.1364
0.9462710665480314,116003107219.22972
0.9453952025777481,116667320383.51314
0.944509123325108,117335336714.26546
0.9436124776917308,118007177987.74063
0.9427031271235915,118682866104.88148
0.9417842015102267,119362423092.02986
0.9408548011329053,120045871101.64842
0.9399128788695273,120733232413.03896
0.9389598121366356,121424529433.07253
0.9379965102240495,122119784696.91599
0.9370215717540923,122819020868.77054
0.936036624093055,123522260742.60657
0.9350405920066602,124229527242.91068
0.9340331022401299,124940843425.42953
0.9330151242227177,125656232477.92284
0.9319833677068909,126375717720.92087
0.9309396134261022,127099322608.48105
0.9298826224569494,127827070728.95662
0.9288146479231745,128558985805.76144
0.9277362798283716,129295091698.14757
0.926646983363712,130035412401.97873
0.9255447863600914,130779972050.51686
0.9244323897968303,131528794915.2045
0.9233065194968473,132281905406.46033
0.9221700588712766,133039328074.47057
0.9210199439410486,133801087609.99359
0.9198603391805666,134567208845.1605
0.9186888637675654,135337716754.289
0.9175035182012657,136112636454.69302
0.9163078574374561,136891993207.50601
0.915098482680545,137675812418.49997
0.9138774172669312,138464119638.918
0.912645246030159,139256940566.30295
0.9114014607403582,140054301045.3394
0.9101451894717341,140856227068.69226
0.9088790635169368,141662744777.85593
0.9076014004822357,142473880464.00803
0.9063117508452104,143289660568.8624
0.9050097036941149,144110111685.53586
0.9036948236612714,144935260559.41034
0.9023681136798517,145765134089.0094
0.9010297005623111,146599759326.87033
0.8996801059100707,147439163480.43094
0.8983166452128102,148283373912.91153
0.8969416629049853,149132418144.21176
0.8955546268151559,149986323851.8029
0.8941577441648498,150845118871.63492
0.8927476445147481,151708831199.03912
0.8913252863588642,152577488989.64545
0.8898924165063271,153451120560.2956
0.888445696419388,154329754389.9709
0.8869866974981299,155213419120.71573
0.8855160227489995,156102143558.57632
0.8840339559767955,156995956674.5353
0.8825398254424186,157894887605.45792
0.8810335567497826,158798965655.04385
0.8795146683809868,159708220294.77808
0.8779856267623207,160622681164.89658
0.8764450528622033,161542378075.3474
0.8748926554523293,162467341006.76782
0.8733291148281295,163397600111.4561
0.871754155274647,164333185714.36
0.8701670965126166,165274128314.05972
0.8685677061502916,166220458583.76776
0.8669566798303245,167172207372.32318
0.8653355004498987,168129405705.20276
0.8637022533972754,169092084785.52682
0.8620567686684544,170060275995.08212
0.8604015313163041,171034010895.33902
0.8587342964718381,172013321228.48608
0.8570550337628565,172998238918.45926
0.8553643753725926,173988796071.98804
0.8536648614496191,174985024979.63718
0.8519541899456625,175986958116.86157
0.850232886808792,176994628145.06683
0.8485012145680247,178008067912.66916
0.846759139694119,179027310456.17178
0.8450051984759523,180052389001.23627
0.8432396212524832,181083336963.7712
0.841465538625272,182120187951.01587
0.8396815221276905,183162975762.6416
0.8378856018441976,184211734391.84756
0.8360794272034883,185266498026.47504
0.8342631589324219,186327301050.11572
0.8324390176112442,187394178043.2387
0.8306020653327794,188467163784.31168
0.8287555207764036,189546293250.94064
0.8268997065071871,190631601621.00412
0.8250369801037774,191723124273.806
0.8231626257152139,192820896791.2227
0.8212788517434532,193924954958.8691
0.8193868737822325,195035334767.25928
0.817485637486047,196152072412.98553
0.8155744347403201,197275204299.8931
0.8136540697189052,198404767040.26917
0.8117257360807412,199540797456.03876
0.8097877659693525,200683332579.9595
0.8078412753725148,201832409656.83524
0.8058867011078916,202988066144.7236
0.8039239095511804,204150339716.16382
0.8019536476314966,205319268259.39798
0.7999772944885157,206494889879.61285
0.7979938719582549,207677242900.17538
0.7959999607316892,208866365863.88867
0.7939973604687799,210062297534.2417
0.7919890169396385,211265076896.67963
0.7899717205399766,212474743159.868
0.7879473795083721,213691335756.9776
0.7859173766510344,214914894346.96307
0.7838797982967205,216145458815.86267
0.781835495955774,217383069278.09244
0.7797840381241453,218627766077.75635
0.7777258445935806,219879589789.96426
0.7756608903558055,221138581222.1483
0.7735908595403201,222404781415.40024
0.7715142426124434,223678231645.8023
0.7694311641860135,224958973425.7799
0.7673433829922471,226247048505.44742
0.7652488432181935,227542498873.9767
0.7631473497666516,228845366760.95853
0.7610399197418987,230155694637.78638
0.7589285605641328,231473525219.0337
0.756812800421045,232798901463.8538
0.7546921242101348,234131866577.37256
0.7525662164014019,235472464012.10468
0.7504340997843308,236820737469.36227
0.7482962322199745,238176730900.68735
0.7461558931005533,239540488509.27667
0.744010122788462,240912054751.43057
0.741859820879717,242291474337.99442
0.739707864318209,243678792235.82373
0.7375504023692575,245074053669.24338
0.7353882988100082,246477304121.52463
0.7332219933066584,247888589336.37088
0.7310544909534523,249307955319.40182
0.7288836612899015,250735448339.6612
0.7267093351940461,252171114931.11697
0.7245323912548343,253615001894.18646
0.7223525440713371,255067156297.2537
0.720169549148209,256527625478.21207
0.7179838747906742,257996457045.99918
0.7157959731707256,259473698882.15707
0.7136062040812613,260959399142.3849
0.711415141733448,262453606258.11682
0.7092231717739129,263956368938.0927
0.7070289208309019,265467736169.95422
0.7048327972520845,266987757221.8332
0.702635997366095,268516481643.9664
0.7004379737415243,270053959270.30215
0.698238613985626,271600240220.13336
0.6960389410062046,273155374899.72278
0.6938382188502961,274719414003.95486
0.6916368238113755,276292408517.9806
0.6894340448177059,277874409718.8829
0.6872301948020603,279465469177.35144
0.6850269163996348,281065638759.35614
0.6828240136300101,282674970627.8466
0.6806205645191898,284293517244.44385
0.6784176096877598,285921331371.1591
0.6762166411408065,287558466072.1052
0.6740160429426181,289204974715.23505
0.6718151931876235,290860910974.0723
0.6696155359526866,292526328829.47064
0.6674172893788877,294201282571.3634
0.6652186390009555,295885826800.54346
0.6630204089447637,297580016430.43317
0.6608234424539726,299283906688.88434
0.6586273712730821,300997553119.9687
0.6564334487866331,302721011585.7984
0.6542424879067152,304454338268.33826
0.6520531947689683,306197589671.2413
0.6498664847833759,307950822621.69385
0.6476828065155253,309714094272.2599
0.6454992258183756,311487462102.75366
0.6433169088768432,313270983922.1036
0.6411382216860609,315064717870.24677
0.6389645960160213,316868722420.01434
0.6367909795313208,318683056379.0473
0.6346201036436994,320507778891.70386
0.6324528244306047,322342949440.9974
0.6302887277810924,324188627850.525
0.6281286016495975,326044874286.4288
0.625972921247818,327911749259.3457
0.6238222028360345,329789313626.39154
0.6216750912865714,331677628593.1335
0.619531778153301,333576755715.5965
0.6173916757326549,335486756902.2589
0.6152553984101633,337407694416.0814
0.613122667807321,339339630876.52594
0.6109945701129662,341282629261.60767
0.6088703804711058,343236752909.9387
0.6067520146542399,345202065522.7968
0.60464035993272,347178631166.20593
0.6025328314057214,349166514273.01526
0.6004294130705874,351165779645.0105
0.5983307682817446,353176492455.0153
0.5962376904286326,355198718249.0271
0.5941500052675983,357232522948.342
0.5920679664135112,359277972851.7159
0.5899922258613141,361335134637.51337
0.5879215508396433,363404075365.8937
0.5858561979633766,365484862480.9845
0.5837963024084719,367577563813.09265
0.5817427351971881,369682247580.9031
0.5796949586918889,371798982393.71497
0.5776530335881472,373927837253.6661
0.5756175576523891,376068881557.9942
0.5735896237560696,378222185101.2887
0.5715673983280942,380387818077.7705
0.5695508302810158,382565851083.5831
0.5675410456980895,384756355119.0912
0.5655384125720171,386959401591.1914
0.563542358144636,389175062315.644
0.5615537857381696,391403409519.4179
0.5595715376315125,393644515843.0347
0.5575965242537331,395898454342.94904
0.5556272230359054,398165298493.91724
0.5536644868462292,400445122191.40564
0.5517088640951854,402737999753.9863
0.5497605817202845,405044005925.7729
0.5478207936481628,407363215878.8439
0.5458883082423376,409695705215.7062
0.543963989474189,412041549971.7469
0.5420469572401004,414400826617.7246
0.5401361848087821,416773612062.24927
0.5382343026395611,419159983654.30273
0.5363396598614061,421560019185.74634
0.5344536694087546,423973796893.8708
0.5325760160372566,426401395463.9344
0.5307055266800741,428842894031.7333
0.528842613052584,431298372186.1862
0.52698769905986,433767909971.9171
0.5251399298901965,436251587891.878
0.5233002889520697,438749486909.95966
0.5214687213154344,441261688453.64465
0.5196455812113011,443788274416.6477
0.5178316803480062,446329327161.5996
0.516026919404283,448884929522.71765
0.5142300772921413,451455164808.52057
0.5124408811351929,454040116804.5293
0.5106606153711156,456639869776.0133
0.508887492884721,459254508470.7225
0.5071224216001516,461884118121.66486
0.5053662875773377,464528784449.8698
0.503618876264684,467188593667.1979
0.5018800815505574,469863632479.1356
0.5001503391600914,472553988087.63745
0.49842873486148254,475259748193.95306
0.4967142620050364,477981001001.5015
0.4950096390784713,480717835218.7333
0.49331296568806154,483470340062.0276
0.4916260162592578,486238605258.60657
0.4899484065913208,489022721049.44666
0.4882806976423637,491822778192.23615
0.48662222804567484,494638867964.3175
0.4849720342297565,497471082165.6792
0.48332946252090253,500319513121.932
0.4816946001935655,503184253687.33484
0.4800679794110458,506065397247.80536
0.4784505470930507,508963037723.9808
0.4768431333311352,511877269574.2627
0.4752464122319693,514808187797.9132
0.47365945525148817,517755887938.1348
0.472080765766592,520720466085.20197
0.47050978049677605,523702018879.57623
0.46894658002138767,526700643515.074
0.4673922618267264,529716437742.01965
0.46584751542038366,532749499870.43866
0.46431262662991263,535799928773.2685
0.46278705653832497,538867823889.567
0.4612702162768643,541953285227.77106
0.4597622130587647,545056413368.93915
0.45826248224417193,548177309470.0481
0.45677091634021344,551316075267.2726
0.45528854245386924,554472813079.3193
0.45381586701761023,557647625810.745
0.4523524024198945,560840616955.3284
0.4508980655364322,564051890599.4261
0.44945239077039717,567281551425.3843
0.44801493857923663,570529704714.9318
0.44658611903096623,573796456352.6313
0.44516605273614074,577081912829.3129
0.4437557819156349,580386181245.5629
0.4423543316209311,583709369315.1975
0.44096227921993214,587051585368.7925
0.4395789608633812,590412938357.1956
0.43820390603981696,593793537855.0975
0.43683718817343364,597193494064.5868
0.4354795679675616,600612917818.7494
0.4341316410922875,604051920585.2896
0.432792271054967,607510614470.1455
0.43146170069361656,610989112221.1642
0.4301393256965139,614487527231.7568
0.4288255759933091,618005973544.615
0.4275203384564288,621544565855.4086
0.4262246029789785,625103419516.5444
0.4249380637385167,628682650540.9065
0.4236600479070524,632282375605.6584
0.4223907042157319,635902712056.026
0.42112931594146025,639543777909.1434
0.41987584555033325,643205691857.8793
0.41863084631262965,646888573274.7274
0.41739468290233983,650592542215.6764
0.41616758399240705,654317719424.1447
0.41494927620330796,658064226334.8956
0.41373966059802053,661832185078.017
0.41253814507223074,665621718482.8809
0.4113447370789397,669432950082.1696
0.4101588013147508,673266004115.8833
0.4089807876291396,677121005535.3982
0.40781125474725227,680998080007.5482
0.4066499245822706,684897353918.7023
0.4054968020058713,688818954378.9062
0.40435191509628254,692763009226.004
0.4032149867957506,696729647029.828
0.4020856759833959,700718997096.367
0.4009645487283127,704731189472.0042
0.3998515964835654,708766354947.734
0.3987466624520329,712824625063.4482
0.39764952991376923,716906132112.2013
0.3965600072709054,721011009144.5455
0.39547812236430413,725139389972.8455
0.394403519123049,729291409175.6631
0.39333625589835275,733467202102.1218
0.39227644936027095,737666904876.3416
0.3912244371520062,741890654401.856
0.3901796612139923,746138588366.0841
0.38914221340307864,750410845244.8275
0.38811266762653013,754707564306.7634
0.3870907954837548,759028885618.0093
0.3860766046069179,763374950046.6636
0.38506974643207587,767745899267.423
0.38406960712808036,772141875766.1758
0.38307601870440733,776563022844.6718
0.382089580297462,781009484625.1685
0.38111035410133154,785481406055.1543
0.3801384928474196,789978932912.0487
0.379174113926549,794502211807.9795
0.37821676747348076,799051390194.5364
0.3772654936202074,803626616367.6038
0.37632025171082356,808228039472.1688
0.3753815344782454,812855809507.2097
0.3744496461406946,817510077330.5586
0.3735247882434461,822190994663.8462
0.37260684572579855,826898714097.4208
0.37169569565808686,831633389095.3496
0.37079093775356264,836395174000.3973
0.36989211547017925,841184224039.0682
0.36899858012281495,846000695326.6758
0.3681113927354202,850844744872.4087
0.36723165305387045,855716530584.4757
0.3663574903242696,860616211275.2266
0.36549070068422224,865543946666.3556
0.36462972624501894,870499897394.0817
0.3637734888088278,875484225014.4119
0.36292300468273386,880497092008.3802
0.36207767365779125,885538661787.3724
0.3612377267160385,890609098698.4243
0.3604051102230078,895708568029.6084
0.3595786138564446,900837236015.3923
0.3587572620461006,905995269842.0876
0.3579412217312224,911182837653.2701
0.3571303423989891,916400108555.2908
0.3563242270631987,921647252622.7621
0.3555234076863429,926924440904.1136
0.35472819268861044,932231845427.1754
0.3539381685243264,937569639204.7783
0.3531533003028777,942937996240.3862
0.3523736227045437,948337091533.7756
0.35159833133954327,953767101086.7528
0.3508277557364237,959228201908.8628
0.35006183428383936,964720572023.1923
0.349300497021414,970244390472.1399
0.3485433013253412,975799837323.2858
0.34779098524370566,981387093675.2286
0.3470434247741555,987006341663.5217
0.3462994335088828,992657764466.578
0.3455615342137307,998341546311.6736
0.3448240466977204,1004057872480.9209
0.3440919031307269,1009806929317.3413
0.3433648016755404,1015588904230.9065
0.34264125344530183,1021403985704.681
0.3419221971720916,1027252363300.9335
0.3412075015720004,1033134227667.3486
0.3404961599561144,1039049770543.2139
0.339787650541523,1044999184765.681
0.3390822646076816,1050982664276.0623
0.33838002180821,1057000404126.1428
0.3376809218297658,1063052600484.5315
0.3369852063130916,1069139450643.0632
0.33629298725615464,1075261153023.2445
0.3356034662327069,1081417907182.6902
0.3349166435606903,1087609913821.6643
0.33423226993647315,1093837374789.587
0.3335503938809485,1100100493091.6504
0.3328711251317019,1106399472895.4004
0.3321943468615541,1112734519537.4275
0.3315204181529576,1119105839530.0254
0.3308489819302881,1125513640567.9583
0.3301796255051338,1131958131535.1958
0.3295119384634651,1138439522511.758
0.3288462529416379,1144958024780.532
0.3281825695021851,1151513850834.1733
0.32752090341929047,1158107214382.042
0.3268614964799697,1164738330357.1594
0.32620375945981867,1171407414923.2065
0.3255478559741092,1178114685481.5786
0.3248935925117289,1184860360678.487
0.32424017919871956,1191644660412.053
0.32358794806090413,1198467805839.5154
0.3229375656091235,1205330019384.3997
0.3222892413739884,1212231524743.8096
0.32164142809857565,1219172546895.6775
0.32099479504301726,1226153312106.1409
0.3203491942123691,1233174047936.8757
0.3197044060719898,1240234983252.5564
0.3190608441380859,1247336348228.2751
0.3184186246553682,1254478374357.0862
0.3177770578910448,1261661294457.512
0.3171360974201139,1268885342681.1724
0.3164957237544035,1276150754520.377
0.31585526122582497,1283457766815.8438
0.31521528716675856,1290806617764.3828
0.31457596285728207,1298197546926.6763
0.31393739169691054,1305630795235.099
0.3132992487334543,1313106605001.5625
0.3126613965751709,1320625219925.4014
0.31202394235125,1328186885101.3298
0.31138654751409267,1335791847027.447
0.3107489748554636,1343440353613.2346
0.3101106450463474,1351132654187.682
0.3094721948167325,1358868999507.3691
0.3088340936553361,1366649641764.6868
0.30819529694757963,1374474834596.0115
0.3075561899698672,1382344833090.0198
0.30691712712259045,1390259893795.9573
0.30627738290498224,1398220274732.0476
0.30563666755325863,1406226235393.859
0.30499592602367065,1414278036762.8066
0.30435473659878637,1422375941314.6172
0.30371229300227837,1430520213027.9292
0.3030685880192245,1438711117392.8528
0.30242444073892727,1446948921419.6704
0.30177880063882895,1455233893647.5007
0.30113244705737957,1463566304153.0693
0.3004851259672109,1471946424559.5308
0.29983619307515247,1480374528045.282
0.2991853732475268,1488850889352.9146
0.2985340051251254,1497375784798.1235
0.29788206852989263,1505949492278.7622
0.29722895527625964,1514572291283.8538
0.2965739012359811,1523244462902.75
0.29591769858205075,1531966289834.2454
0.2952590370559209,1540738056395.8433
0.29459870692586493,1549560048532.9722
0.29393734724655723,1558432553828.3596
0.2932736014153752,1567355861511.3545
0.2926077140201321,1576330262467.4075
0.2919409060676354,1585356049247.502
0.2912736856443652,1594433516077.7417
0.29060363100641445,1603562958868.8977
0.2899315740337867,1612744675226.0735
0.28925809885458753,1621978964458.419
0.28858374551926325,1631266127588.8757
0.28790480760053433,1640606467363.9756
0.2872234187949659,1650000288263.7234
0.2865405859167734,1659447896511.5422
0.28585559289895,1668949600084.209
0.2851681070296148,1678505708721.9482
0.28447881481825005,1688116533938.4749
0.28378756633671276,1697782389031.2026
0.28309699502209945,1707503589091.4038
0.2824051730172326,1717280451014.5344
0.2817069967806571,1727113293510.5098
0.28100731696492404,1737002437114.1497
0.2803061246740502,1746948204195.571
0.27960232925823664,1756950918970.7532
0.27889612928993524,1767010907512.0496
0.2781872071937158,1777128497758.8752
0.27747429629448367,1787304019528.3386
0.2767595728796567,1797537804526.0518
0.27604460225181876,1807830186356.8918
0.27533180158323917,1818181500535.8982
0.2745880885479282,1828592084499.2244
0.27385112761376623,1839062277615.124
0.27313240912505304,1849592421194.997
0.27240572800784424,1860182858504.5325
0.27168042980741397,1870833934774.9202
0.2709530710119328,1881545997214.0518
0.2702235033793409,1892319395017.9001
0.26948954979550954,1903154479381.842
0.26875396104021293,1914051603512.1665
0.2680070089332646,1925011122637.5286
0.26726549667353533,1936033394020.5906
0.2665236244459166,1947118776969.6055
0.26578164633002116,1958267632850.1934
0.26503844503623736,1969480325097.0579
0.26429256878319324,1980757219225.8967
0.26354475117634607,1992098682845.254
0.26279381255928447,2003505085668.5664
0.2620407316476878,2014976799526.152
0.26128503285653415,2026514198377.3965
0.26052710992668077,2038117658322.8848
0.2597669690383963,2049787557616.687
0.2590039647881332,2061524276678.7146
